region,internal,internal,internal
field,phi,Exact[phi],Diff[phi]
component,L2,L2,L2
t, , , 
0.0,5.235290527150873,nan,nan
1.576,5.216162281821742,5.259961886316148,0.13976550008043293
1.581,5.200727149562318,5.245697793232996,0.16064246229710072
1.586,5.186362913475246,5.229287524012428,0.17835350044817114
1.591,5.172066603159045,5.210947178536607,0.1968637168696201
1.596,5.157491592222803,5.1909377739446425,0.21683326264246736
1.601,5.142553626140745,5.169559807902784,0.2376026331195949
1.606,5.127291228267794,5.147146975851564,0.25842969428951273
1.611,5.111803062776539,5.124059056224392,0.27874053936337395
1.616,5.096220562430132,5.1006740070268535,0.2981629879106889
1.621,5.08069425733405,5.077379355897444,0.3164950673134123
1.626,5.065385389948902,5.05456301228496,0.3336646656583619
1.631,5.050459272402256,5.032603681996634,0.34969195940237574
1.636,5.03607910827986,5.011861117216533,0.3646569068017794
1.641,5.022399979097937,4.9926664841865955,0.37867210954091884
1.646,5.009563114121465,4.975313170334429,0.39186129451967244
1.651,4.997690702977267,4.960048376792393,0.4043436216273168
1.656,4.986881511999443,4.947065845679433,0.41622371010057185
1.661,4.977207500164188,4.936500050455996,0.4275868026231735
1.666,4.968711542698102,4.928422130763817,0.43849804655148283
1.671,4.96140628641279,4.922837782065255,0.44900461234444905
1.676,4.955274094205101,4.919687219856134,0.45913934779837223
1.681,4.950267990958472,4.91884723568049,0.4689248546203586
1.686,4.946313496861955,4.920135256790424,0.47837718957897535
1.691,4.943311221421708,4.923315222646739,0.48750874150370416
1.696,4.941140086370873,4.928105008135018,0.49633014189597613
1.701,4.939661043952293,4.9341850617872565,0.5048512881878272
1.706,4.938721156428304,4.941207890937885,0.513081684611614
1.711,4.938157902798066,4.9488080149847615,0.5210303490875122
1.716,4.93780358034198,4.95661202039182,0.5287055195096768
1.721,4.937489672856231,4.964248382361004,0.5361143447560884
1.726,4.937051065093122,4.971356762714756,0.543262685618392
1.731,4.936329994199889,4.977596545762576,0.5501550928500948
1.736,4.935179643454061,4.982654428595242,0.5567949813777435
1.741,4.9334673004833745,4.9862509351768995,0.5631849841830368
1.746,4.931077020374309,4.9881457718202284,0.5693274461320589
1.751,4.927911752560546,4.988141983375915,0.5752250052801564
1.756,4.9238949082421435,4.986088904043878,0.5808812046615471
1.761,4.918971361652419,4.981883924244512,0.5863010791682862
1.766,4.913107893343319,4.9754731161691055,0.591491668076945
1.771,4.906293096596647,4.966850776495166,0.5964624126917272
1.776,4.8985367790475784,4.956057956487404,0.6012254093061995
1.781,4.8898689006962135,4.94318005849537,0.6057954992853392
1.786,4.880338096810719,4.928343584794467,0.6101901897011088
1.791,4.8700098399455936,4.911712130724766,0.6144294088976329
1.796,4.858964299565924,4.893481719882586,0.618535111031446
1.801,4.847293960726658,4.873875585200065,0.622530751608881
1.806,4.835101065028488,4.853138506342103,0.6264406620881351
1.811,4.822494937757453,4.831530820927796,0.6302893556601132
1.816,4.809589264783902,4.809322234346598,0.6341007984359521
1.821,4.796499381488167,4.786785559831901,0.6378976806011283
1.826,4.783339633707039,4.764190526192485,0.6417007208360398
1.831,4.770220867448304,4.741797794229137,0.6455280346513714
1.836,4.757248099882729,4.719853323336666,0.649394593447474
1.841,4.74451841888402,4.698583226096268,0.6533117962977139
1.846,4.732119152163141,4.678189239949191,0.6572871709191614
1.851,4.720126339888881,4.658844930767009,0.6613242143025111
1.856,4.70860353670931,4.640692723188682,0.6654223773174704
1.861,4.6976009604506554,4.623841827397359,0.6695771915749065
1.866,4.687154995687831,4.608367102532004,0.6737805311644345
1.871,4.677288051115236,4.594308864650412,0.6780209967941373
1.876,4.668008760492579,4.581673613945585,0.682284405477362
1.881,4.659312508208755,4.570435623829882,0.6865543653307871
1.886,4.651182252506501,4.560539305576447,0.6908129123285625
1.891,4.6435896124284035,4.551902238226395,0.6950411840468496
1.896,4.636496178826769,4.544418735767555,0.6992201045747262
1.901,4.629855005511402,4.537963812924088,0.7033310548958334
1.906,4.623612233903118,4.532397407402067,0.7073565041721349
1.911,4.617708803447554,4.527568719662438,0.7112805794579731
1.916,4.612082200472105,4.523320540307346,0.7150895543568042
1.921,4.606668200011953,4.519493448705282,0.7187722408656243
1.926,4.60140255820189,4.5159297831202245,0.7223202729466944
1.931,4.596222616898991,4.512477300923285,0.7257282750075149
1.936,4.591068787016898,4.508992466155375,0.728993913236246
1.941,4.585885882364225,4.505343319700857,0.7321178324232116
1.946,4.580624281352266,4.5014119038194655,0.7351034853195413
1.951,4.575240899564983,4.4970962272427375,0.7379568655938079
1.956,4.569699961696518,4.492311769208574,0.740686158928788
1.961,4.5639735666259815,4.486992530641276,0.7433013296572768
1.966,4.558042044319243,4.481091648314879,0.745813662485433
1.971,4.5518941077581125,4.474581593514772,0.7482352802192986
1.976,4.545526807158847,4.467453980758304,0.750578658926733
1.981,4.53894529733423,4.459719014901817,0.7528561615780027
1.986,4.532162432169819,4.451404606799511,0.7550796098828187
1.991,4.525198202827721,4.442555188911722,0.7572599117878384
1.996,4.518079038468508,4.43323026316584,0.759406758977338
2.001,4.510836990004705,4.4235027141753775,0.7615284048548121
2.006,4.503508818680796,4.413456921783044,0.7636315290641208
2.011,4.496135012128957,4.4031867079081435,0.765721189883983
2.016,4.488758750991023,4.3927931538775775,0.7678008610896141
2.021,4.481424849239996,4.382382325770844,0.7698725454277484
2.026,4.474178690992419,4.372062946721905,0.7719369529903916
2.031,4.467065185889314,4.361944056453437,0.7739937297488103
2.036,4.4601277640506805,4.352132699391291,0.7760417195030018
2.041,4.4534074301895,4.342731683312804,0.7780792416065874
2.046,4.44694189472038,4.333837450408249,0.7801043670434439
2.051,4.440764797633893,4.3255381016773,0.7821151766744276
2.056,4.434905038555844,4.317911613572904,0.784109987583585
2.061,4.429386223805812,4.311024282625599,0.7860875362286942
2.066,4.424226238457986,4.304929429386167,0.7880471103131068
2.071,4.419436948448699,4.299666387449354,0.7899886247168644
2.076,4.415024034740332,4.295259796690901,0.7919126402454711
2.081,4.410986958521599,4.291719212373948,0.7938203271948737
2.086,4.4073190534864635,4.289039033742327,0.7957133786466664
2.091,4.404007738476258,4.287198747454348,0.7975938808890066
2.096,4.401034841274813,4.286163473086194,0.7994641503285589
2.101,4.398377022188233,4.285884790312515,0.8013265476665979
2.106,4.396006284277235,4.286301820586375,0.8031832809310272
2.111,4.393890555781574,4.287342530468595,0.8050362091792509
2.116,4.391994329403408,4.288925219399616,0.8068866583283492
2.121,4.390279342700283,4.290960151780749,0.8087352596635414
2.126,4.388705283861122,4.293351291762702,0.8105818201794879
2.131,4.387230507566077,4.295998099071194,0.8124252320990303
2.136,4.385812746416987,4.298797345405679,0.8142634267876205
2.141,4.384409804513491,4.301644913248236,0.8160933759514332
2.146,4.382980221079351,4.3044375421023435,0.8179111405954687
2.151,4.381483893551083,4.307074491018438,0.8197119658491929
2.156,4.379882651164241,4.309459090530569,0.8214904175601689
2.161,4.378140771753197,4.311500161618743,0.8232405546160059
2.166,4.37622543616482,4.313113283844183,0.8249561293674649
2.171,4.37410711632903,4.314221899231342,0.8266308073523967
2.176,4.371759894591305,4.314758242677363,0.8282583967972491
2.181,4.369161713363356,4.314664093576061,0.8298330781102481
2.186,4.366294555466136,4.313891346898613,0.8313496237645246
2.191,4.363144556708616,4.312402405151581,0.8328035995669555
2.196,4.359702053258553,4.310170395428697,0.8341915392697745
2.201,4.355961567214901,4.3071792181948325,0.8355110857463484
2.206,4.351921734488395,4.303423436506871,0.836761093451978
2.211,4.347585179643211,4.298908016110101,0.8379416885536599
2.216,4.342958342758141,4.293647928275697,0.8390542848675921
2.221,4.338051263641639,4.287667628389344,0.8401015555195414
2.226,4.332877328894306,4.281000424185532,0.8410873619742243
2.231,4.3274529873686145,4.273687748165935,0.842016643703299
2.236,4.3217974395424275,4.265778349159341,0.8428952732206695
2.241,4.315932306214004,4.257327418188021,0.8437298824582332
2.246,4.309881281754618,4.248395663811566,0.8445276674419764
2.251,4.303669776932926,4.239048351933161,0.8452961789230433
2.256,4.297324556064185,4.229354324683718,0.8460431069964996
2.261,4.29087337294739,4.219385012455201,0.8467760677886278
2.266,4.284344609743619,4.209213452446813,0.8475024000109221
2.271,4.277766922626753,4.198913326229457,0.8482289785781891
2.276,4.271168897710102,4.188558027841211,0.8489620515958595
2.281,4.264578720424313,4.17821977281909,0.8497071058782505
2.286,4.258023861197538,4.167968757372627,0.8504687648175437
2.291,4.251530779970924,4.157872375638887,0.8512507209459916
2.296,4.245124651773347,4.147994501654465,0.8520557039914087
2.301,4.238829115279742,4.138394841367219,0.8528854836922073
2.306,4.232666045988073,4.129128358718952,0.8537409051861916
2.311,4.22665535537057,4.1202447785881535,0.8546219534850781
2.316,4.220814817084952,4.111788168215557,0.8555278424534543
2.321,4.215159921069907,4.103796597666374,0.8564571228734299
2.326,4.209703756095508,4.0963018789289825,0.8574078036267537
2.331,4.204456921092065,4.0893293824211705,0.8583774797806226
2.336,4.199427465339912,4.082897928976852,0.8593634614215221
2.341,4.194620857366569,4.077019754816141,0.8603628974274273
2.346,4.190039982166862,4.071700546552057,0.8613728889728488
2.351,4.185685166135302,4.06693954294444,0.8623905883825629
2.356,4.181554228879212,4.062729699858397,0.8634132799387015
2.361,4.177642560866046,4.059057914700522,0.864438440346977
2.366,4.1739432256503255,4.055905306469879,0.8654637777233161
2.371,4.1704470852259465,4.053247547451382,0.8664872491145399
2.376,4.1671429468598795,4.0510552424777995,0.867507057661228
2.381,4.164017729585349,4.049294351577489,0.8685216314980287
2.386,4.1610566483684215,4.047926651696545,0.869529587323925
2.391,4.158243413813368,4.0469102330297195,0.8705296822284737
2.396,4.155560445141351,4.046200025312255,0.8715207578057904
2.401,4.152989094065391,4.045748349217936,0.8725016808124911
2.406,4.150509877094079,4.045505487784016,0.8734712846263827
2.411,4.148102713728097,4.045420272552136,0.8744283155475815
2.416,4.145747167968493,4.0454406788886725,0.8753713875712686
2.421,4.143422690534341,4.045514424742396,0.8762989486789886
2.426,4.141108859190207,4.04558956692662,0.8772092609781712
2.431,4.138785614610762,4.04561508889056,0.8781003962081372
2.436,4.136433489260547,4.045541473882797,0.8789702472690983
2.441,4.134033826840717,4.045321257418302,0.879816555563563
2.446,4.1315689899509325,4.044909553046432,0.8806369531105265
2.451,4.129022553732398,4.0442645455851345,0.881429017641499
2.456,4.126379483396573,4.043347946237365,0.8821903382477577
2.461,4.123626293702216,4.042125404338268,0.8829185886468038
2.466,4.120751188620457,4.040566870892065,0.8836116047911333
2.471,4.117744179622512,4.038646909540368,0.8842674633636353
2.476,4.114597181236857,4.03634495115153,0.8848845576918815
2.481,4.111304082751489,4.033645488825832,0.8854616677608911
2.486,4.10786079518156,4.03053821076528,0.8859980212959938
2.491,4.104265272882808,4.02701806915139,0.8864933433036205
2.496,4.100517509465744,4.023085283901337,0.8869478919732345
2.501,4.096619507953964,4.018745280925039,0.8873624794302429
2.506,4.092575225430546,4.014008565276416,0.8877384764583433
2.511,4.088390492728156,4.008890530375059,0.8880778009510474
2.516,4.084072910038558,4.003411205264521,0.8883828904782227
2.521,4.079631719643304,3.997594942665148,0.8886566599388432
2.526,4.075077657295656,3.991470051367285,0.8889024457935437
2.531,4.070422784110229,3.985068377289391,0.8891239388118203
2.536,4.065680301136095,3.9784248382878413,0.8893251076150283
2.541,4.06086434909557,3.971576918543271,0.8895101155387221
2.546,4.0559897960577125,3.964564129051902,0.8896832334721265
2.551,4.051072016075834,3.957427441407885,0.8898487513592689
2.556,4.046126662044277,3.950208702659744,0.8900108909705041
2.561,4.041169436213728,3.9429500395448334,0.8901737223840178
2.566,4.036215861938577,3.9356932608320547,0.8903410863668846
2.571,4.0312810603074105,3.928479266816041,0.8905165245298199
2.576,4.026379535321728,3.9213474751860518,0.8907032187661292
2.581,4.021524971233355,3.9143352725209346,0.8909039410919253
2.586,4.016730045523835,3.9074775005207942,0.8911210145999859
2.591,4.012006260806932,3.9008059857622723,0.8913562858414802
2.596,4.007363798658529,3.894349121248118,0.8916111085744535
2.601,4.002811398028335,3.8881315073090246,0.8918863384795171
2.606,3.9983562604696874,3.8821736585090054,0.8921823381527655
2.611,3.9940039839438946,3.8764917821149867,0.892498991451707
2.616,3.989758526423013,3.8710976324340933,0.892835726096539
2.621,3.9856221999408707,3.865998443923284,0.8931915433178046
2.626,3.9815956951389606,3.8611969444669936,0.8935650532905158
2.631,3.9776781357360584,3.8566914486366075,0.8939545150995875
2.636,3.9738671617325734,3.852476029131942,0.8943578800349445
2.641,3.970159039558457,3.848540763003098,0.8947728371082587
2.646,3.9665487968019386,3.8448720477046896,0.8951968598070156
2.651,3.963030378630096,3.8414529805857023,0.8956272532451219
2.656,3.9595968225447833,3.838263794105443,0.8960612010221207
2.661,3.956240447720467,3.8352823379227314,0.896495811255441
2.666,3.9529530548542766,3.832484598058614,0.8969281613931079
2.671,3.949726132230785,3.8298452426025693,0.8973553415404967
2.676,3.946551063570252,3.827338182931128,0.8977744961380792
2.681,3.943419333192606,3.824937139141753,0.8981828639035566
2.686,3.940322724090872,3.822616198372736,0.898577815998937
2.691,3.937253504665821,3.8203503548752815,0.898956892400491
2.696,3.934204600124482,3.8181160211156535,0.8993178364382182
2.701,3.9311697448833134,3.815891499798653,0.8996586274342703
2.706,3.9281436127348406,3.8136574075017595,0.8999775113107547
2.711,3.925121922025472,3.8113970415737173,0.9002730289617185
2.716,3.9221015136418207,3.809096683063087,0.9005440420980113
2.721,3.919080400201712,3.806745829682422,0.9007897561837903
2.726,3.916057785481859,3.804337354163213,0.9010097399967542
2.731,3.913034053773968,3.801867584796893,0.9012039412677804
2.736,3.910010729531084,3.799336306469101,0.901372697796314
2.741,3.9069904083324727,3.7967466820584495,0.9015167434019243
2.746,3.9039766608439206,3.7941050956666094,0.9016372080653785
2.751,3.900973912067193,3.791420920751071,0.9017356116389079
2.756,3.897987298743194,3.7887062178204296,0.9018138505681774
2.761,3.8950225082852707,3.785975367897032,0.9018741771696523
2.766,3.8920856030589452,3.7832446494222456,0.901919171146599
2.771,3.8891828341812493,3.7805317676423265,0.9019517032032489
2.776,3.8863204492762216,3.7778553467316986,0.9019748908261177
2.781,3.883504498785293,3.7752343959483112,0.9019920465387539
2.786,3.8807406454858127,3.772687761935334,0.902006619194074
2.791,3.8780339818146796,3.770233579849108,0.9020221291380464
2.796,3.875388859425872,3.767888736273107,0.9020420983495061
2.801,3.8728087351330416,3.7656683568458034,0.902069976921958
2.806,3.870296037006499,3.763585331168581,0.9021090674921816
2.811,3.8678520539161556,3.761649886860646,0.9021624494251546
2.816,3.8654768512497775,3.7598692235948876,0.9022329047233776
2.821,3.863169214903239,3.758247216598465,0.9023228477304048
2.826,3.860926624952589,3.7567841974643525,0.9024342607341713
2.831,3.8587452596950294,3.7554768182372555,0.9025686375388503
2.836,3.856620030006569,3.754318002662876,0.902726936960527
2.841,3.854544643228241,3.7532969862860925,0.9029095480112976
2.846,3.852511695080227,3.752399444820224,0.9031162682713044
2.851,3.850512787433004,3.751607707958197,0.9033462966151268
2.856,3.8485386691544994,3.7509010536288003,0.9035982410676228
2.861,3.8465793967176034,3.7502560756849745,0.9038701421276286
2.866,3.8446245108067503,3.7496471162069196,0.9041595114311901
2.871,3.842663224815472,3.749046752061785,0.9044633851463615
2.876,3.840684620886523,3.74842632412326,0.9047783910170963
2.881,3.838677849016166,3.7477564966454295,0.9051008275225445
2.886,3.836632324725472,3.7470078337197013,0.9054267532074717
2.891,3.834537920892114,3.7461513795230537,0.905752083885257
2.896,3.832385149531004,3.745159229180656,0.9060726951304073
2.901,3.830165329604221,3.7440050774968494,0.9063845272733332
2.906,3.827870737320352,3.742664733528762,0.906683689993538
2.911,3.8254947358396127,3.7411165899541263,0.9069665635824287
2.916,3.8230318818212594,3.739342037383229,0.9072298940141141
2.921,3.820478006820372,3.73732581514679,0.907470879119162
2.926,3.817830272147857,3.7350562916189802,0.907687243396662
2.931,3.8150871964359574,3.732525668770786,0.9078772993157787
2.936,3.812248655786974,3.729730107357854,0.9080399933387774
2.941,3.809315857010999,3.726669770895429,0.9081749353310509
2.946,3.806291285065177,3.7233487883292296,0.9082824104963935
2.951,3.8031786263790592,3.719775137045178,0.9083633734732204
2.956,3.7999826702754484,3.71596044954432,0.9084194247347501
2.961,3.7967091911624187,3.7119197487142306,0.9084527699383051
2.966,3.793364814569652,3.7076711181277697,0.9084661633511979
2.971,3.789956870422234,3.703235315167235,0.9084628369289629
2.976,3.7864932371804225,3.6986353359803545,0.9084464170229547
2.981,3.7829821806194994,3.6938959422980115,0.9084208310365994
2.986,3.779432191076355,3.6890431609570142,0.9083902066228382
2.991,3.7758518229479776,3.684103767551321,0.9083587662111823
2.996,3.7722495400926634,3.6791047659614464,0.908330719765554
3.001,3.7686335705612914,3.67407287556789,0.9083101587002516
3.006,3.765011773779116,3.6690340377294404,0.9083009538204803
3.011,3.761391522916763,3.6640129525969924,0.9083066600081855
3.016,3.757779604742421,3.659032656541771,0.9083304301487066
3.021,3.75418213874809,3.654114149416478,0.908374940497015
3.026,3.750604516804762,3.6492760795607317,0.9084423293245913
3.031,3.7470513640394576,3.6445344929398416,0.9085341502819858
3.036,3.7435265210567774,3.639902651108689,0.9086513414721219
3.041,3.7400330470648124,3.63539092086808,0.9087942107707033
3.046,3.736573242925357,3.6310067365833003,0.9089624374682533
3.051,3.733148692646129,3.626754634221353,0.9091550898585601
3.056,3.7297603213815864,3.6226363542933426,0.9093706579747386
3.061,3.7264084676204816,3.618651009119459,0.9096071002891837
3.066,3.723092966922441,3.614795308219624,0.9098619028577148
3.071,3.719813244329645,3.6110638342209604,0.9101321491090345
3.076,3.716568412428233,3.607449360502938,0.9104145982633763
3.081,3.7133573719693573,3.603943200902706,0.910705770211525
3.086,3.7101789119816844,3.6005355811958095,0.9110020345971621
3.091,3.707031806412779,3.5972160217604916,0.9112997018196644
3.096,3.7039149045210027,3.593973720825396,0.9115951137068813
3.101,3.7008272124952883,3.590797927979988,0.9118847316927161
3.106,3.6977679640984387,3.5876782981751174,0.9121652204660587
3.111,3.694736678500065,3.5846052172319887,0.91243352522887
3.116,3.691733203876602,3.581570090879992,0.9126869409050067
3.121,3.6887577457956686,3.5785655905224925,0.9129231718708325
3.126,3.685810879858039,3.5755858502475806,0.9131403810274592
3.131,3.6828935485297993,3.5726266110196883,0.9133372272967639
3.136,3.6800070425477647,3.5696853094696492,0.913512890894031
3.141,3.6771529677109918,3.5667611102079864,0.9136670860046209
3.146,3.6743331982693586,3.5638548820829006,0.9138000607664757
3.151,3.6715498184768456,3.560969120256467,0.913912584730941
3.156,3.6688050541836885,3.55810781734797,0.9140059242379451
3.161,3.666101196591007,3.555276288162277,0.9140818063947392
